# XDI/1.0 BlueSky/1.11.0 BMM/2023-2.1-py310-tiled
# Beamline.name: BMM (06BM) -- Beamline for Materials Measurement (NIST)
# Beamline.xray_source: NSLS-II three-pole wiggler
# Beamline.collimation: paraboloid mirror, 5 nm Rh on 30 nm Pt
# Beamline.focusing: not in use
# Beamline.harmonic_rejection: flat mirror, Pt stripe, pitch = 7.0 mrad relative to beam
# Beamline.software: Bluesky 1.11.0, Ophyd 1.8.0, DataBroker 2.0.0b23, Python 3.10.8, 2023-2.1-py310-tiled
# Detector.I0: 10 cm N2
# Detector.I1: 25 cm N2
# Detector.I2: 25 cm N2
# Detector.fluorescence: SII Vortex ME4 (4-element silicon drift)
# Detector.deadtime_correction: Xspress3
# Element.symbol: Zn
# Element.edge: K
# Element.reference: Zn
# Element.reference_material: Zn foil
# Facility.name: NSLS-II
# Facility.energy: 3.0
# Facility.current: 400.5
# Facility.mode: top-off
# Facility.GUP: 315355
# Facility.SAF: 313563
# Facility.cycle: 2024-1
# Mono.name: Si(111)
# Mono.d_spacing: 3.1354173
# Mono.encoder_resolution: 0.0000050 deg/ct
# Mono.angle_offset: 16.0891518 deg
# Mono.scan_mode: pseudo channel cut
# Mono.scan_type: step
# Mono.direction: forward in energy
# Sample.name: Ca(Zn,Mn,Fe,Mg)Si2O6
# Sample.prep: powder on tape
# Sample.x: 113.234 mm
# Sample.y: 81.177 mm
# Sample.SDD_position: 53.000 mm
# Scan.experimenters: Bruce Ravel
# Scan.edge_energy: 9658.6
# Scan.start_time: 2024-03-21T14:17:02
# Scan.end_time: 2024-03-21T14:26:59
# Scan.transient_id: 5346
# Scan.uid: 29689920-dc6b-424a-b1d8-14e98cce49f8
# Scan.hdf5file: 2024/03/21/e36c9c17-91e3-42f2-855f_000000.h5
# Scan.plot_hint: (Zn1+Zn2+Zn3+Zn4)/I0  --  ($8+$9+$10+$11)/$5
# Column.1: energy eV
# Column.2: requested_energy eV
# Column.3: measurement_time seconds
# Column.4: xmu 
# Column.5: I0 nA
# Column.6: It nA
# Column.7: Ir nA
# Column.8: Zn1 
# Column.9: Zn2 
# Column.10: Zn3 
# Column.11: Zn4 
# ///////////
# sample courtesy Martin Stennett, University of Sheffield
# -----------
# energy  requested_energy  measurement_time  xmu  I0  It  Ir  Zn1  Zn2  Zn3  Zn4
  9458.629  9458.600  1.000  26.596881  394.119769  131.768049  68.506090  3680.579345  3531.320685  1443.937462  1826.519233
  9468.621  9468.600  1.000  25.196811  393.025844  131.807239  68.692065  3493.821815  3309.973028  1366.826632  1732.376545
  9478.694  9478.600  1.000  24.384849  392.193709  131.945162  68.918238  3380.686639  3158.771205  1371.847437  1652.279077
  9488.657  9488.600  1.000  24.458961  390.813601  131.869351  69.055173  3325.928892  3178.798118  1384.865800  1669.301806
  9498.625  9498.600  1.000  23.711720  390.252412  132.102327  69.304880  3232.867304  3178.798118  1255.694344  1586.196055
  9508.619  9508.600  1.000  22.568646  389.276080  132.175919  69.495664  3062.170660  2939.455700  1204.621651  1579.186152
  9518.630  9518.600  1.000  21.986950  388.200906  132.206418  69.671821  3012.367639  2762.204213  1181.595971  1579.186152
  9528.631  9528.600  1.000  21.566152  387.036000  132.198390  69.829176  2938.008539  2760.219271  1169.587192  1479.062077
  9538.631  9538.600  1.000  21.180287  386.146473  132.280915  70.032156  2870.972521  2724.158257  1176.599842  1406.962348
  9548.636  9548.600  1.000  20.488030  385.136706  132.319873  70.207215  2810.269352  2576.954175  1066.453927  1437.014862
  9558.631  9558.600  1.000  20.145989  384.368266  132.456546  70.421184  2810.269352  2576.954175  1050.430467  1305.824764
  9568.616  9568.600  1.000  18.942164  383.509180  132.547245  70.615148  2556.590161  2428.742845  1010.378817  1268.782104
  9578.614  9578.600  1.000  18.989719  382.443709  132.561595  70.777760  2556.590161  2428.742845  1053.442535  1223.723129
  9588.618  9588.600  1.000  18.278671  381.402871  132.577571  70.933836  2434.849160  2347.635607  984.351814  1204.701042
  9598.615  9598.600  1.000  17.903391  380.403516  132.607525  71.093381  2408.010697  2293.561586  934.284715  1174.655858
  9608.582  9608.600  1.000  17.935737  379.717484  132.762859  71.275266  2408.010697  2293.561586  934.284715  1174.655858
  9618.594  9618.600  1.000  17.491181  378.519334  132.718516  71.379673  2350.439310  2169.375820  947.302248  1153.632914
  9628.592  9628.600  1.000  17.132840  377.264739  132.635559  71.436792  2242.379199  2100.265651  891.229187  1229.742242
  9630.590  9630.600  1.000  17.138840  376.931380  132.578261  71.427832  2279.968179  2110.293667  941.299880  1128.604810
  9632.582  9632.600  1.000  16.726098  376.813845  132.622813  71.452662  2226.566521  2111.303054  914.265289  1050.490440
  9634.582  9634.600  1.000  16.762542  376.476643  132.581322  71.421485  2244.666987  2026.171820  902.246999  1137.619562
  9636.584  9636.600  1.000  17.024392  376.278967  132.580730  71.402930  2242.753295  2114.298941  914.260048  1134.608184
  9638.578  9638.600  1.000  17.197512  376.314859  132.675541  71.448921  2250.392729  2167.395306  879.219767  1174.671591
  9640.581  9640.600  1.000  17.312923  375.995040  132.640656  71.417635  2306.338832  2134.330276  952.317380  1116.586828
  9642.573  9642.600  1.000  16.821876  376.059658  132.742655  71.426278  2159.824076  2054.221842  920.277452  1191.705588
  9644.574  9644.600  1.000  16.678492  375.683843  132.678235  71.348477  2166.755283  2044.195358  914.266686  1140.622625
  9646.587  9646.600  1.000  16.897703  375.666367  132.741830  71.309417  2219.773878  2025.170683  944.305246  1158.648805
  9648.590  9648.600  1.000  16.912671  374.338979  132.347380  71.018119  2159.870969  2065.236665  925.282433  1180.681989
  9648.863  9648.900  1.000  17.662626  374.346216  132.360956  70.999029  2258.494387  2105.287802  994.373768  1253.781189
  9649.169  9649.200  1.000  17.660766  374.476352  132.406379  71.008321  2269.088935  2163.381934  958.326519  1222.741708
  9649.458  9649.500  1.000  17.600319  374.792913  132.519610  71.043104  2296.099176  2053.212816  1027.423499  1219.739460
  9649.768  9649.800  1.000  17.573297  374.788587  132.554061  71.046833  2315.917513  2145.366939  949.315696  1175.671118
  9650.070  9650.100  1.000  17.131642  374.899205  132.589182  71.036669  2187.357766  2039.193453  999.383012  1196.704561
  9650.376  9650.400  1.000  17.782093  374.933343  132.623077  71.029852  2183.413261  2228.499803  1071.491560  1183.694922
  9650.673  9650.700  1.000  17.622426  374.752021  132.562090  70.983421  2291.647043  2120.317741  1027.418741  1164.656379
  9650.975  9651.000  1.000  17.816130  374.866180  132.611961  70.969174  2257.113493  2133.332906  1029.425140  1258.792966
  9651.273  9651.300  1.000  17.718233  374.638222  132.545588  70.915470  2218.370379  2162.382534  1010.399192  1246.775054
  9651.579  9651.600  1.000  17.387470  374.846846  132.638981  70.913086  2219.252079  2109.306206  989.371706  1199.708479
  9651.885  9651.900  1.000  17.561524  374.724161  132.613061  70.873695  2239.273835  2149.370535  1029.426313  1162.656601
  9652.186  9652.200  1.000  17.409880  374.584112  132.567133  70.816637  2160.002132  2093.271679  1006.395358  1261.795129
  9652.476  9652.500  1.000  17.460498  374.703062  132.627096  70.801549  2160.002132  2114.309608  1006.395358  1261.795129
  9652.798  9652.800  1.000  17.715630  374.657002  132.619963  70.753988  2246.777855  2105.290174  997.383736  1287.833171
  9653.088  9653.100  1.000  17.958960  374.596963  132.595817  70.694291  2261.732680  2184.422471  1058.470471  1222.746407
  9653.394  9653.400  1.000  18.497500  374.429358  132.569802  70.640277  2312.153935  2234.506220  1110.541019  1268.805944
  9653.696  9653.700  1.000  18.005206  374.517399  132.604509  70.602779  2267.621078  2137.348611  1063.475603  1274.817608
  9653.990  9654.000  1.000  18.003367  374.333644  132.545702  70.523046  2267.621078  2200.449865  1022.415973  1248.779015
  9654.300  9654.300  1.000  17.868245  375.131789  132.843026  70.607385  2244.301539  2163.407421  1022.415973  1272.821827
  9654.594  9654.600  1.000  18.112296  375.438885  132.946253  70.595509  2294.362947  2103.300947  1055.470168  1346.926076
  9654.908  9654.900  1.000  18.390058  375.372250  132.930703  70.511280  2287.226190  2238.524613  1100.537248  1276.829350
  9655.198  9655.200  1.000  18.391049  375.352031  132.934903  70.438517  2287.226190  2238.524613  1100.537248  1276.829350
  9655.504  9655.500  1.000  18.603713  375.316253  132.943414  70.349634  2352.388498  2155.386894  1142.592092  1331.908430
  9655.798  9655.800  1.000  18.469247  375.303352  132.947888  70.254531  2300.681877  2209.472490  1137.583321  1283.832499
  9656.096  9656.100  1.000  18.946169  375.131407  132.894840  70.126770  2461.385553  2198.460019  1134.579452  1312.877880
  9656.398  9656.400  1.000  18.961382  375.104531  132.907499  70.008769  2340.399596  2233.512701  1158.612300  1379.975786
  9656.700  9656.700  1.000  19.280751  375.056293  132.897249  69.874688  2387.161682  2218.489407  1203.678685  1422.037287
  9656.999  9657.000  1.000  19.398112  375.157631  132.942180  69.741499  2461.195699  2240.519773  1207.680930  1367.953391
  9657.289  9657.300  1.000  19.656345  375.011542  132.902879  69.569684  2421.960734  2303.642116  1207.687839  1438.065553
  9657.595  9657.600  1.000  19.461214  374.972718  132.900843  69.376354  2348.050454  2236.527591  1273.780543  1439.065622
  9657.897  9657.900  1.000  19.430258  375.009386  132.931113  69.166331  2370.200427  2250.552272  1243.734174  1422.042147
  9658.199  9658.200  1.000  19.595053  374.766947  132.842669  68.888560  2348.153660  2324.655142  1227.705917  1443.063297
  9658.498  9658.500  1.000  20.437032  374.880957  132.897346  68.611765  2428.649277  2452.866269  1283.791552  1496.146939
  9658.792  9658.800  1.000  20.258209  374.774695  132.865391  68.241484  2464.641723  2315.644071  1309.824508  1502.153719
  9659.094  9659.100  1.000  20.452714  374.861345  132.919917  67.810787  2503.237200  2359.720246  1317.841689  1486.132904
  9659.396  9659.400  1.000  20.919097  374.824203  132.925526  67.267352  2486.016740  2489.912773  1284.789347  1580.264901
  9659.691  9659.700  1.000  21.569205  374.771991  132.924622  66.569158  2726.610782  2332.657111  1413.965700  1610.300481
  9659.993  9660.000  1.000  21.549495  374.696228  132.908250  65.650201  2560.307810  2474.904409  1415.977364  1623.324932
  9660.295  9660.300  1.000  22.312680  374.580707  132.877474  64.464581  2548.268813  2519.966743  1519.122543  1770.541464
  9660.606  9660.600  1.000  22.242591  374.636146  132.901195  62.832109  2548.268813  2525.988536  1519.122543  1739.498666
  9660.900  9660.900  1.000  23.070285  374.587948  132.892370  60.890886  2691.995361  2596.098916  1571.196952  1782.559606
  9661.207  9661.200  1.000  23.923825  374.451165  132.855909  58.388820  2738.052861  2648.183534  1736.430097  1835.637612
  9661.501  9661.500  1.000  24.720217  374.326706  132.819495  55.692222  2752.782695  2758.348847  1745.435500  1996.870484
  9661.804  9661.800  1.000  25.573088  374.422731  132.870948  52.857931  2931.252355  2871.535555  1769.477917  2002.879723
  9662.106  9662.100  1.000  26.697585  374.209489  132.792642  50.049203  3099.207376  2911.614873  1853.601235  2126.066327
  9662.400  9662.400  1.000  28.174743  374.141607  132.791321  47.565333  3102.268992  3048.827323  2163.035666  2227.211480
  9662.711  9662.700  1.000  29.690763  374.170301  132.801529  45.318705  3308.754042  3226.120054  2176.059684  2398.467894
  9663.002  9663.000  1.000  31.764565  374.012283  132.754872  43.472443  3436.761747  3441.442555  2349.305570  2652.827543
  9663.304  9663.300  1.000  34.903015  373.942370  132.738653  41.786749  3716.768389  3709.887917  2699.815389  2925.244285
  9663.611  9663.600  1.000  38.436501  374.136326  132.810310  40.386218  3983.948474  4016.392038  3096.373600  3283.777087
  9663.905  9663.900  1.000  42.986608  374.028849  132.782425  39.146878  4501.871746  4486.166146  3461.910040  3628.283657
  9664.204  9664.200  1.000  47.430547  373.961155  132.767709  38.089558  4875.879129  4748.591395  3902.560627  4210.150941
  9664.498  9664.500  1.000  52.927145  373.905309  132.762898  37.194671  5253.930140  5181.287988  4493.419766  4861.102576
  9664.801  9664.800  1.000  59.147675  373.778240  132.716372  36.420697  5911.664939  5786.326763  5106.313729  5303.808420
  9665.096  9665.100  1.000  65.200099  373.766606  132.703298  35.801601  5911.664939  6585.646933  5840.396980  6031.910890
  9665.398  9665.400  1.000  75.760801  373.793126  132.721248  35.273554  7218.757125  7457.109694  6693.676907  6949.323073
  9665.693  9665.700  1.000  84.398443  373.534123  132.610578  34.817503  7799.425822  8317.558869  7519.939284  7888.774224
  9665.992  9666.000  1.000  94.624222  373.530695  132.610987  34.404766  8719.040788  9114.966091  8554.556197  8956.488171
  9666.299  9666.300  1.000  107.397082  373.624149  132.634888  34.009220  10016.400544  10156.801635  9732.422149  10220.518877
  9666.597  9666.600  1.000  115.561121  373.541812  132.596412  33.596591  10686.061468  10945.246547  10568.811644  10966.790886
  9666.900  9666.900  1.000  127.691103  373.345990  132.526280  33.134232  11635.462295  12104.241014  11744.565659  12188.692170
  9667.195  9667.200  1.000  136.267566  373.106371  132.430910  32.641915  12423.566335  12833.602000  12772.293718  12812.834961
  9667.502  9667.500  1.000  144.293132  372.783692  132.313922  32.098789  13147.664138  13641.986748  13312.233983  13688.241469
  9667.796  9667.800  1.000  147.501810  372.661759  132.285965  31.562862  13147.664138  14176.026238  13312.233983  14332.359615
  9668.099  9668.100  1.000  152.352442  372.367344  132.181347  31.015968  13751.465274  14175.042289  14140.620359  14663.946204
  9668.394  9668.400  1.000  155.545224  372.347289  132.183222  30.504906  13940.666259  14498.605039  14532.196899  14945.374253
  9668.701  9668.700  1.000  155.513274  372.310290  132.178513  30.032078  13952.827448  14582.808273  14557.376931  14806.179320
  9669.000  9669.000  1.000  154.663420  372.637220  132.312199  29.606143  13966.537949  14522.654930  14524.262303  14619.891704
  9669.295  9669.300  1.000  155.679356  372.722083  132.353373  29.213895  13989.755727  14687.940306  14431.049981  14916.388026
  9669.618  9669.600  1.000  154.792042  372.894371  132.428753  28.832573  14147.392007  14514.637327  14337.991490  14721.060233
  9669.901  9669.900  1.000  156.583053  372.643973  132.343455  28.474935  14144.794935  14597.872951  14435.179893  15171.883072
  9670.204  9670.200  1.000  158.093509  372.663715  132.354438  28.139327  14308.266035  14743.061177  14701.545246  15162.841926
  9670.503  9670.500  1.000  160.478887  372.729033  132.387697  27.842396  14502.364751  15011.608679  14983.045108  15318.121701
  9670.802  9670.800  1.000  163.113735  372.671566  132.369110  27.584197  14647.734679  15176.928074  15310.530433  15652.658088
  9671.101  9671.100  1.000  163.916596  372.612318  132.371820  27.378619  14709.859412  15345.151783  15432.798402  15589.533118
  9671.404  9671.400  1.000  163.884653  372.516186  132.342844  27.235868  14679.014473  15334.221903  15459.891780  15576.557871
  9671.711  9671.700  1.000  163.979194  372.301416  132.272263  27.164106  14679.014473  15334.221903  15459.891780  15576.557871
  9671.998  9672.000  1.000  159.682085  372.387831  132.327552  27.202670  14324.198200  15002.555728  14868.899094  15268.012448
  9672.293  9672.300  1.000  157.089439  372.360604  132.317861  27.329936  14196.047215  14735.027813  14481.221855  15081.621463
  9672.604  9672.600  1.000  153.667289  372.286695  132.317778  27.574751  13844.039104  14381.428834  14157.613246  14825.205770
  9672.883  9672.900  1.000  150.527192  372.280179  132.347533  27.898041  13844.039104  14070.817145  13973.325797  14150.108010
  9673.203  9673.200  1.000  146.147109  372.185938  132.318198  28.310169  13173.114117  13797.388989  13471.591887  13951.803762
  9673.490  9673.500  1.000  142.590688  372.156319  132.327056  28.773963  12815.103068  13450.685422  13145.003297  13655.233774
  9673.793  9673.800  1.000  141.808065  372.023043  132.295195  29.259650  12928.891396  13276.335775  13095.764507  13454.876136
  9674.104  9674.100  1.000  139.401693  371.880633  132.256524  29.776246  12623.680520  13276.335775  12919.576763  13021.196906
  9674.395  9674.400  1.000  137.332899  372.024746  132.330827  30.256543  12364.141565  12910.689313  12741.194660  13075.211224
  9674.711  9674.700  1.000  137.190302  371.710942  132.224705  30.716989  12364.141565  12814.589059  12741.194660  13075.211224
  9674.994  9675.000  1.000  134.833269  371.609435  132.200794  31.101392  12308.554776  12814.589059  12262.490044  12719.680896
  9675.305  9675.300  1.000  134.854987  371.597705  132.211793  31.452764  12275.239286  12619.150485  12261.424985  12955.989038
  9675.601  9675.600  1.000  133.009753  371.720860  132.257904  31.747414  12066.618816  12532.033138  12121.232806  12722.614984
  9675.908  9675.900  1.000  132.239487  371.551576  132.216912  31.974699  11829.943319  12413.876727  12276.503655  12613.465940
  9676.211  9676.200  1.000  130.236022  371.453748  132.189831  32.161766  11842.155152  12244.513540  11908.902104  12381.087818
  9676.499  9676.500  1.000  128.130933  371.346922  132.168180  32.307837  11734.820679  12100.167197  11604.383412  12141.656463
  9676.806  9676.800  1.000  125.978956  371.380174  132.194192  32.440173  11466.682687  11910.895364  11552.294118  11856.214454
  9677.105  9677.100  1.000  121.816743  371.436591  132.226435  32.540601  11270.905808  11463.161534  11027.494418  11485.633940
  9677.409  9677.400  1.000  119.539155  371.158804  132.142477  32.595481  10923.620706  11248.762514  10898.298721  11297.328029
  9677.696  9677.700  1.000  115.950367  371.256371  132.188761  32.655298  10526.669199  10900.070546  10658.863762  10961.709114
  9678.012  9678.000  1.000  114.980619  371.247007  132.209175  32.696259  10372.745797  10958.270588  10671.884074  10683.310253
  9678.303  9678.300  1.000  111.297229  371.049658  132.159547  32.705950  10214.353808  10412.299776  10290.313055  10379.832140
  9678.603  9678.600  1.000  110.317859  371.029556  132.161988  32.716613  10214.353808  10372.198531  9945.801380  10398.832654
  9678.898  9678.900  1.000  108.073009  371.031921  132.177353  32.730737  9880.530028  10183.885646  9843.615470  10190.505149
  9679.198  9679.200  1.000  105.247638  370.887324  132.133674  32.730537  9730.480681  9960.460533  9461.058697  9883.014686
  9679.497  9679.500  1.000  104.591115  370.956363  132.175413  32.763775  9523.432846  10108.668942  9475.953734  9690.684211
  9679.793  9679.800  1.000  101.820837  370.622116  132.068327  32.785818  9536.577178  9350.378451  9218.576579  9631.521965
  9680.092  9680.100  1.000  100.720521  370.576198  132.063531  32.846994  9466.559674  9406.504742  9059.349780  9392.213744
  9680.400  9680.400  1.000  99.912186  370.585906  132.084685  32.942352  9217.091862  9562.756315  8983.212994  9262.986683
  9680.700  9680.700  1.000  98.572405  370.559346  132.085846  33.052142  9179.804171  9453.546475  8813.912747  9079.662431
  9681.003  9681.000  1.000  98.515790  370.586195  132.102463  33.190995  9152.408298  9453.546475  8730.803976  9171.832995
  9681.295  9681.300  1.000  98.113729  370.549896  132.108736  33.343143  9117.954108  9214.167326  8826.009572  9197.900939
  9681.603  9681.600  1.000  98.055190  370.456634  132.091799  33.510488  9090.180980  9311.283074  8785.941396  9137.790218
  9681.899  9681.900  1.000  96.694867  370.401792  132.072829  33.687108  8846.451678  9253.176598  8738.799754  8977.524115
  9682.202  9682.200  1.000  97.650964  370.316288  132.061173  33.875410  8967.768712  9341.372396  8806.969397  9045.631916
  9682.506  9682.500  1.000  97.518576  370.390939  132.113985  34.075360  8976.098786  9254.214507  8903.122458  8986.561318
  9682.806  9682.800  1.000  97.893950  370.216872  132.044696  34.251027  9061.064437  9181.109811  8901.091426  9098.726375
  9683.110  9683.100  1.000  97.012005  370.068912  132.002797  34.423385  9092.687572  9213.189209  8657.752904  8937.497556
  9683.401  9683.400  1.000  97.523855  370.071769  132.007993  34.587648  9062.196807  9201.118012  8706.776357  9120.734266
  9683.596  9683.600  1.000  97.357832  369.783949  131.915768  34.659379  8899.655733  9124.993848  8796.904213  9179.809798
  9684.605  9684.590  1.000  97.557901  369.790606  131.947016  35.010168  9017.136998  9207.194172  8838.016665  9013.647600
  9685.598  9685.590  1.000  100.723051  369.573944  131.906077  35.147014  9224.247457  9587.819663  9118.491185  9294.056717
  9686.611  9686.610  1.000  102.347616  369.492552  131.894113  35.181128  9237.446578  9907.322314  9190.559673  9481.353385
  9687.674  9687.660  1.000  104.083193  369.343646  131.877446  35.099818  9335.493627  9906.320043  9569.102741  9631.549457
  9688.748  9688.720  1.000  103.699779  370.418716  132.325732  35.026829  9423.284668  9999.568285  9352.846341  9636.639660
  9689.831  9689.800  1.000  101.243607  370.590895  132.423512  34.759010  9317.972891  9722.136924  9097.571338  9382.277636
  9690.927  9690.900  1.000  97.630338  370.507471  132.431141  34.399894  8810.518628  9296.319754  9012.281772  9053.649544
  9692.039  9692.020  1.000  94.067023  370.343705  132.425831  33.987429  8759.705593  8975.871111  8377.344888  8724.208268
  9693.163  9693.160  1.000  90.271581  370.090639  132.380565  33.532203  8319.924415  8620.211172  8102.936061  8365.595273
  9694.333  9694.310  1.000  88.782676  369.901818  132.351934  33.089197  8223.969885  8564.062297  7888.563777  8164.277473
  9695.502  9695.490  1.000  86.127174  369.621425  132.293188  32.669067  8105.005600  8229.485143  7555.049951  7944.908058
  9696.697  9696.680  1.000  85.318634  369.664302  132.365942  32.334872  8009.928905  8185.481386  7468.976343  7874.866569
  9697.916  9697.900  1.000  86.288729  369.584018  132.376458  32.076498  8233.442947  8185.481386  7468.976343  8003.034394
  9699.147  9699.130  1.000  89.404104  369.430048  132.366957  31.903152  8289.251229  8610.231529  7934.689912  8194.389642
  9700.395  9700.380  1.000  91.655027  369.175026  132.314384  31.811029  8332.353114  8856.593452  8254.134538  8393.665760
  9701.672  9701.650  1.000  92.934700  369.049318  132.311881  31.837146  8511.613442  8809.540256  8254.134538  8722.199339
  9702.958  9702.940  1.000  96.934193  368.751786  132.251073  31.995158  8832.879507  9203.248287  8647.798559  9060.730441
  9704.264  9704.250  1.000  98.277781  368.555454  132.224338  32.297562  8953.573425  9262.325792  8881.104548  9123.808464
  9705.603  9705.580  1.000  100.327704  368.567363  132.280137  32.645110  9283.401485  9408.640336  8964.289258  9321.186300
  9706.934  9706.930  1.000  103.269063  368.400816  132.262099  32.904198  9339.700793  9641.013724  9440.011492  9623.681084
  9708.302  9708.300  1.000  103.888743  367.860828  132.126380  33.075435  9421.852155  9826.283380  9210.624046  9757.839640
  9709.687  9709.680  1.000  107.110936  364.922972  131.121940  32.952290  9640.791662  9801.135364  9654.224451  9991.089582
  9711.101  9711.090  1.000  108.892817  365.730590  131.434502  33.061505  9753.686681  10080.725183  9851.592587  10139.429591
  9712.515  9712.510  1.000  109.804196  368.085417  132.350034  33.205252  9917.682611  10189.971397  10101.052375  10208.617056
  9713.959  9713.950  1.000  109.432066  367.820199  132.299323  33.029283  9884.928130  10252.057630  9956.820019  10157.518570
  9715.415  9715.410  1.000  109.891940  367.546872  132.257940  32.858720  9928.903976  10164.928290  9937.774901  10358.831573
  9716.912  9716.890  1.000  109.493053  367.325672  132.229907  32.755494  9834.118339  10295.161906  9855.693276  10234.635622
  9718.397  9718.390  1.000  110.159798  366.956513  132.146870  32.734052  9722.797406  10357.295778  10005.952935  10337.809136
  9719.920  9719.910  1.000  110.904540  366.951150  132.211369  32.809196  9837.238825  10416.399684  10071.038240  10371.871598
  9721.447  9721.450  1.000  111.093256  366.800995  132.206293  32.878320  10116.060577  10201.094995  10084.093407  10347.867721
  9723.024  9723.010  1.000  111.603319  366.660159  132.208486  32.922863  10058.205215  10283.151397  10152.162675  10426.971295
  9724.593  9724.580  1.000  112.442407  366.465997  132.202426  32.946920  9907.180551  10790.017441  10178.272283  10330.848726
  9726.199  9726.180  1.000  112.899318  366.429550  132.238739  32.964314  10164.844392  10522.526188  10186.212129  10496.063612
  9727.790  9727.790  1.000  111.840101  365.985750  132.136940  32.915306  10162.605321  10295.224425  10160.206313  10313.847268
  9729.450  9729.430  1.000  110.261376  365.830216  132.149871  32.830392  9785.093140  10157.959348  10162.189083  10231.701355
  9731.095  9731.080  1.000  110.085709  365.769337  132.187479  32.708236  9586.948913  10360.274722  9894.773926  10423.979220
  9732.778  9732.750  1.000  108.728457  365.563257  132.178130  32.538258  9772.140522  10039.758490  9704.520427  10230.709423
  9734.436  9734.440  1.000  108.449986  365.396239  132.166070  32.342047  9654.399550  10099.829725  9674.405954  10198.581689
  9736.156  9736.150  1.000  107.624363  365.283047  132.183755  32.152792  9619.768187  10076.871202  9697.512608  9919.203327
  9737.898  9737.880  1.000  106.295834  365.075327  132.181485  31.994817  9370.042023  9987.622900  9675.390972  9772.930389
  9739.640  9739.630  1.000  106.636877  364.821950  132.149978  31.909932  9546.550170  9825.406833  9655.402882  9876.113580
  9741.395  9741.390  1.000  105.468589  364.808903  132.213865  31.942951  9546.550170  9684.184451  9408.069216  9837.076343
  9743.187  9743.180  1.000  104.376740  364.607641  132.205101  32.075183  9371.865466  9584.915033  9482.126628  9617.650004
  9744.997  9744.980  1.000  103.485489  364.296147  132.156942  32.319367  9199.888229  9537.889408  9291.827670  9669.759597
  9746.815  9746.810  1.000  102.373524  364.239725  132.201847  32.655028  9211.700594  9463.733575  9194.698297  9418.371885
  9748.655  9748.650  1.000  102.165177  363.984514  132.185880  32.989188  8976.489022  9419.688255  9346.928830  9443.436337
  9750.520  9750.510  1.000  102.706763  363.808468  132.203594  33.280123  9266.519797  9464.843320  9265.840538  9368.386601
  9752.403  9752.390  1.000  102.331571  363.605988  132.195541  33.483831  9144.501269  9474.791161  9241.775712  9347.303866
  9754.290  9754.290  1.000  102.290741  363.160081  132.093615  33.634217  9094.061866  9432.717619  9145.634347  9475.500040
  9756.223  9756.210  1.000  101.424531  363.101586  132.142259  33.786247  8839.712557  9483.784693  9008.415480  9495.495387
  9758.174  9758.150  1.000  101.358995  362.817478  132.103585  33.927928  8944.474154  9247.361138  9207.670203  9375.309455
  9760.121  9760.110  1.000  102.679317  362.875922  132.189171  34.086874  9317.109298  9450.799611  9103.574375  9388.368584
  9762.097  9762.080  1.000  103.591975  362.585193  132.160553  34.193776  9175.543810  9645.090784  9247.773207  9492.508388
  9764.104  9764.080  1.000  102.608179  362.506323  132.194412  34.227736  8934.868381  9487.843869  9337.944857  9435.456691
  9766.111  9766.090  1.000  102.692907  362.206207  132.162171  34.146331  8934.868381  9559.942519  9235.697499  9465.500001
  9768.127  9768.120  1.000  102.688214  362.059794  132.186678  34.001681  9050.393952  9303.489030  9159.614314  9665.776353
  9770.194  9770.180  1.000  102.453454  361.597938  132.084220  33.806350  8977.063044  9406.709675  9279.833833  9383.351170
  9772.266  9772.250  1.000  102.482511  360.896240  131.888989  33.575311  9092.979335  9249.435458  9174.664092  9468.474021
  9774.343  9774.340  1.000  103.837397  358.091784  130.924406  33.142298  8890.507705  9506.723646  9363.833344  9422.253905
  9776.466  9776.450  1.000  103.602345  361.522029  132.273775  33.274248  9021.929882  9454.817910  9365.032719  9612.749361
  9778.590  9778.580  1.000  103.831955  361.011212  132.152136  33.025869  9153.067904  9387.701165  9332.960045  9610.770712
  9780.731  9780.720  1.000  105.177219  360.806291  132.152600  32.810816  9342.617611  9713.338321  9367.018952  9525.627354
  9782.898  9782.890  1.000  105.051573  360.264521  132.035380  32.640400  9244.412715  9633.154559  9464.171806  9504.615404
  9785.092  9785.080  1.000  105.534315  356.669910  130.791801  32.287430  9210.595251  9510.811367  9295.797673  9623.710361
  9787.302  9787.280  1.000  106.239727  360.212417  132.172746  32.678421  9280.315527  9705.289722  9421.134329  9862.129162
  9789.506  9789.500  1.000  106.769934  359.967214  132.156323  32.760917  9152.569124  9739.353958  9678.548954  9863.203552
  9791.772  9791.750  1.000  109.158350  355.488720  130.611911  32.458058  9327.833391  9931.418994  9483.020208  10062.289438
  9794.040  9794.010  1.000  107.517324  359.773065  132.232872  32.939426  9310.627484  9791.437866  9700.524270  9879.247424
  9796.300  9796.290  1.000  106.704813  359.528780  132.230813  33.014448  9310.627484  9621.191503  9612.457053  9819.175084
  9798.620  9798.590  1.000  106.557165  358.990770  132.114052  33.080116  9193.233510  9638.245262  9682.559946  9738.999926
  9800.937  9800.910  1.000  106.244082  358.790836  132.117299  33.204072  9131.648376  9626.191374  9489.296374  9872.267008
  9803.258  9803.250  1.000  106.245879  353.611077  130.307305  32.900303  9107.287008  9480.771382  9365.962345  9615.699077
  9805.627  9805.600  1.000  105.352503  358.707664  132.251190  33.567197  9028.256301  9604.222252  9553.407173  9604.864648
  9808.001  9807.980  1.000  106.016453  358.354038  132.206500  33.746497  9044.770275  9667.253553  9479.274284  9800.125799
  9810.385  9810.370  1.000  105.624801  358.202633  132.223828  33.939627  9197.823372  9672.303151  9400.171383  9564.783847
  9812.824  9812.790  1.000  105.003488  357.755094  132.143303  34.137224  8936.328001  9513.030408  9375.129881  9741.044352
  9815.239  9815.220  1.000  105.096935  357.518697  132.145081  34.353940  9132.260527  9476.933331  9346.086107  9618.839504
  9817.684  9817.670  1.000  105.393061  357.282193  132.145038  34.558514  9087.967958  9525.038975  9453.219097  9588.837927
  9820.168  9820.150  1.000  104.605679  355.589845  131.609407  34.576012  9063.430559  9512.980976  9221.842368  9398.463333
  9822.679  9822.640  1.000  104.767676  356.953188  132.186076  34.768146  9057.461015  9481.946738  9312.986862  9544.761370
  9825.157  9825.150  1.000  105.006139  356.643008  132.156649  34.682269  9040.805074  9535.090226  9486.269284  9387.540635
  9827.687  9827.670  1.000  105.772259  356.537088  132.211555  34.526595  9047.419531  9516.039642  9391.144509  9757.129567
  9830.235  9830.220  1.000  103.862146  355.168894  131.785931  34.244023  8989.565976  9202.515902  9090.684584  9605.836975
  9832.809  9832.790  1.000  103.911452  355.772625  132.101269  34.203115  8984.651333  9399.867211  9141.740071  9442.591321
  9835.398  9835.370  1.000  103.227373  353.474824  131.327230  33.930323  8875.943780  9185.403922  9089.611388  9337.318232
  9838.000  9837.980  1.000  104.182899  354.988141  131.976664  34.090444  8998.461712  9406.878811  9218.864402  9359.488761
  9840.620  9840.600  1.000  104.272437  354.726887  131.976505  34.102873  9030.106695  9137.406924  9210.876567  9609.846772
  9843.267  9843.250  1.000  104.769842  353.808977  131.729317  34.043345  8952.186611  9233.549644  9338.035221  9544.739144
  9845.924  9845.910  1.000  103.496792  354.399739  132.043417  34.112808  8924.374983  9167.478944  9079.657998  9507.724176
  9848.607  9848.590  1.000  104.208496  354.181871  132.053034  34.095986  8863.349880  9256.633297  9239.958380  9548.818731
  9851.313  9851.290  1.000  103.869097  354.056582  132.097210  34.085027  9084.637479  9264.666087  9061.700421  9364.533326
  9854.033  9854.010  1.000  103.411716  353.856895  132.112611  34.063564  8909.203710  9216.552241  9090.682081  9376.510540
  9856.771  9856.750  1.000  103.585896  353.407624  132.034300  34.024958  8914.174345  9214.585435  9083.726569  9395.559162
  9859.515  9859.500  1.000  104.801635  353.149254  132.028418  34.010852  8965.174732  9284.726935  9338.112727  9422.604840
  9862.299  9862.280  1.000  103.919625  352.866595  132.022674  34.027999  8930.881639  9395.874330  8986.513843  9356.494535
  9865.097  9865.070  1.000  104.033954  352.509319  131.966763  34.061828  8851.861102  9290.723737  9059.681968  9470.671411
  9867.904  9867.890  1.000  103.456087  352.324323  131.999240  34.132292  8703.158531  9245.660415  9159.790330  9341.486582
  9870.735  9870.720  1.000  104.791627  352.093532  132.010829  34.235842  8958.032970  9355.887232  9177.917431  9404.616340
  9873.592  9873.570  1.000  103.964963  351.801548  131.996311  34.378650  8947.227412  9117.456939  9259.984233  9250.366203
  9876.472  9876.450  1.000  103.706542  350.838296  131.729231  34.493992  8926.803211  9179.515561  9050.634137  9227.273476
  9879.350  9879.340  1.000  104.232741  344.138719  129.297048  34.048877  8612.644558  9047.162932  8853.257123  9357.457309
  9882.276  9882.250  1.000  104.449982  350.765283  131.901442  34.929020  8895.314899  9226.672426  9113.809622  9401.630621
  9885.187  9885.170  1.000  104.570647  350.360532  131.845229  35.102331  8895.314899  9226.672426  9113.809622  9401.630621
  9888.146  9888.120  1.000  103.605490  350.403547  131.961929  35.279428  8900.140589  9067.421644  8995.646882  9340.522098
  9891.106  9891.090  1.000  103.369557  350.000777  131.900012  35.372832  8900.140589  9072.388472  8998.604351  9208.291882
  9894.099  9894.070  1.000  103.588072  349.450959  131.784814  35.419468  8699.368844  8994.245133  9037.639415  9467.697692
  9897.101  9897.080  1.000  103.972538  350.102598  132.145304  35.539779  8797.035202  9141.577019  9088.803771  9373.639554
  9900.123  9900.100  1.000  103.068916  349.610945  132.042837  35.511501  8583.037466  8984.379123  9147.978262  9318.626088
  9903.176  9903.150  1.000  104.509710  349.586976  132.143536  35.496606  8746.940575  9212.694747  9117.879729  9457.718376
  9906.218  9906.210  1.000  104.637689  349.312876  132.147669  35.462641  8686.829366  9292.855703  9050.742797  9520.864131
  9909.308  9909.290  1.000  104.529620  348.770705  132.037878  35.410240  8877.909095  9166.611312  8977.638078  9434.710639
  9912.393  9912.390  1.000  103.033849  348.652432  132.109315  35.411563  8568.291965  9041.430897  8975.680094  9337.599024
  9915.538  9915.510  1.000  103.285640  348.108457  131.996694  35.389290  8722.127360  9020.396577  9028.736243  9183.344652
  9918.661  9918.650  1.000  103.146454  347.714720  131.947154  35.393155  8742.230537  9020.396577  8960.648448  9142.264828
  9921.836  9921.800  1.000  104.021652  347.260298  131.868800  35.397103  8839.097096  9025.389530  9123.845015  9134.258272
  9924.992  9924.980  1.000  103.646322  346.918636  131.844402  35.413901  8459.059404  9001.337604  9096.799085  9399.644450
  9928.197  9928.170  1.000  103.023926  346.296962  131.708328  35.396818  8552.673913  9053.406295  8862.442588  9208.349870
  9931.400  9931.390  1.000  105.009074  337.135431  128.296496  34.500621  8541.684982  8920.058843  8872.398355  9068.137377
  9934.648  9934.620  1.000  103.130677  346.723652  132.071287  35.553916  8531.136051  9134.682766  8837.521001  9254.505087
  9937.885  9937.870  1.000  103.476023  346.391983  132.054217  35.591276  8740.892423  8981.362846  9041.791028  9079.218434
  9941.171  9941.150  1.000  103.074445  345.992999  132.018187  35.632419  8604.737282  8866.178787  9012.734655  9179.385512
  9944.451  9944.440  1.000  103.139932  345.773315  132.032920  35.688029  8604.737282  8866.178787  9012.734655  9179.385512
  9947.780  9947.750  1.000  102.993784  345.362482  131.981477  35.740885  8598.879990  8835.167442  8851.533809  9284.607511
  9951.069  9951.070  1.000  101.900340  345.032960  131.956648  35.809071  8432.127617  8801.100819  8859.527537  9066.219837
  9954.432  9954.420  1.000  102.510240  344.521316  131.876485  35.875937  8405.705950  9008.472840  8895.606644  9007.177222
  9957.798  9957.790  1.000  102.367636  335.809793  128.661515  35.091263  8135.191151  8527.248286  8677.883654  9035.731751
  9961.171  9961.170  1.000  102.072421  343.555491  131.731965  36.047273  8349.882928  8823.064169  8791.368190  9103.225306
  9964.593  9964.580  1.000  102.364507  343.640090  131.871732  36.219401  8464.720198  8857.203833  8797.424025  9057.200255
  9968.005  9968.000  1.000  103.486160  342.853884  131.658631  36.298833  8550.426685  8882.235921  8963.718784  9084.250501
  9971.458  9971.450  1.000  103.079570  338.170074  129.962909  35.933775  8423.816602  8755.777783  8641.949455  9036.881817
  9974.909  9974.910  1.000  101.657268  342.901460  131.916699  36.560040  8423.816602  8755.777783  8641.949455  9036.881817
  9978.414  9978.390  1.000  102.922042  342.565498  131.895809  36.621719  8434.465068  8680.941745  8881.582307  9260.551606
  9981.900  9981.890  1.000  102.483820  341.597486  131.635888  36.610203  8402.338481  8958.451425  8670.290615  8977.134873
  9985.423  9985.410  1.000  101.819182  335.208887  129.253741  35.999163  8269.879514  8518.386597  8562.883427  8779.545338
  9988.962  9988.950  1.000  101.910140  341.317563  131.746057  36.746382  8411.398904  8735.007507  8791.413975  8845.900263
  9992.516  9992.500  1.000  101.859090  340.725636  131.629274  36.772215  8302.521720  8556.747876  8857.562403  8989.171241
  9996.103  9996.080  1.000  102.982699  339.671147  131.332954  36.727496  8302.521720  8770.003283  8857.562403  9050.164223
  9999.696  9999.680  1.000  102.999224  340.607378  131.805913  36.883054  8224.867034  8823.257397  8920.768685  9113.402403
  10003.306  10003.290  1.000  102.483805  340.093139  131.716836  36.896958  8269.209650  8711.013868  8756.458274  9117.357026
  10006.935  10006.920  1.000  102.682474  339.701618  131.687739  36.929603  8157.277376  8742.114789  8819.559999  9162.450367
  10010.598  10010.580  1.000  101.390687  335.308078  130.122529  36.526816  8017.679310  8614.700016  8695.209906  8669.527099
  10014.263  10014.250  1.000  102.367723  338.176942  131.305982  36.904769  8181.832370  8732.033177  8679.312364  9025.225485
  10017.957  10017.940  1.000  102.599126  338.428241  131.534417  37.001051  8211.641370  8650.979712  8832.562767  9027.257914
  10021.671  10021.650  1.000  101.624496  338.251235  131.575556  37.050354  8301.533561  8560.821993  8720.371744  8791.883960
  10025.402  10025.380  1.000  102.174856  337.636903  131.451067  37.066490  8162.514246  8734.108151  8759.455216  8841.924188
  10029.156  10029.120  1.000  101.243189  337.319425  131.449924  37.106717  8162.379222  8533.724836  8689.351441  8765.838885
  10032.905  10032.890  1.000  101.564013  336.648742  131.307402  37.116571  8135.285153  8585.851914  8519.119585  8951.140377
  10036.713  10036.680  1.000  101.998889  334.452044  130.567032  36.973253  8191.033153  8510.684335  8582.161208  8829.858057
  10040.490  10040.480  1.000  101.888348  336.674266  131.563333  37.316200  8247.160554  8607.871497  8630.258701  8817.893951
  10044.330  10044.310  1.000  102.399936  335.912628  131.376546  37.358091  8238.223165  8600.855828  8641.277141  8917.075306
  10048.169  10048.150  1.000  101.932709  335.604268  131.370776  37.444199  8090.723971  8610.952920  8687.381644  8819.993508
  10052.029  10052.010  1.000  100.988582  335.245712  131.354224  37.536891  8091.452626  8492.682362  8484.009308  8787.844847
  10055.913  10055.890  1.000  101.697361  334.762556  131.281241  37.613718  8163.674933  8447.632144  8669.317407  8763.843952
  10059.810  10059.790  1.000  101.129373  334.124356  131.139732  37.676748  8054.217503  8388.522000  8505.083830  8841.963265
  10063.731  10063.710  1.000  101.433404  333.603617  131.055670  37.749914  7923.725135  8422.599629  8665.287278  8826.938324
  10067.668  10067.650  1.000  101.215161  333.358748  131.076391  37.825852  7993.234065  8564.876977  8435.002591  8747.845799
  10071.635  10071.610  1.000  102.099052  332.993669  131.049409  37.887964  8037.344834  8491.710402  8486.060187  8983.222387
  10075.601  10075.580  1.000  102.919714  332.389264  130.932894  37.926385  8093.106864  8449.658785  8698.426056  8968.216454
  10079.614  10079.580  1.000  100.994540  331.971914  130.887456  37.982705  8016.013537  8391.573541  8384.930960  8734.832736
  10083.622  10083.590  1.000  101.571984  331.406080  130.786351  38.024198  8073.114486  8481.719919  8404.953117  8701.785623
  10087.646  10087.630  1.000  101.419397  331.077338  130.786169  38.097849  8036.285225  8457.682537  8543.183876  8540.512193
  10091.713  10091.680  1.000  101.126209  327.060844  129.325388  37.746994  7896.036181  8391.455121  8345.715775  8441.216236
  10095.778  10095.750  1.000  102.466886  330.218929  130.688776  38.211109  8108.749300  8358.535075  8646.377927  8722.843079
  10099.874  10099.840  1.000  101.522898  329.811918  130.654108  38.268215  7964.111528  8272.351289  8416.997667  8830.001218
  10104.013  10103.950  1.000  101.259953  329.366514  130.607498  38.315015  7741.081025  8323.508708  8579.244028  8707.803865
  10108.071  10108.080  1.000  100.510407  328.846567  130.508313  38.346795  7815.540877  8266.408660  8276.770677  8693.781963
  10112.261  10112.230  1.000  101.585337  328.392861  130.457741  38.389417  7874.665912  8276.366634  8410.965432  8797.901270
  10116.392  10116.390  1.000  101.643990  327.812103  130.355420  38.417490  7940.071931  8274.374450  8488.044142  8617.639605
  10120.620  10120.580  1.000  100.383778  327.673020  130.425381  38.490361  7757.406233  8269.331061  8288.744807  8577.573617
  10124.839  10124.780  1.000  101.828930  327.187775  130.365809  38.526925  7938.982330  8338.525399  8458.046359  8581.627016
  10129.052  10129.010  1.000  100.924536  326.617750  130.259795  38.554303  7912.041394  8184.271836  8335.875836  8531.555718
  10133.282  10133.250  1.000  101.286430  326.137911  130.191481  38.596302  7938.686487  8122.116848  8399.945820  8572.595529
  10137.542  10137.510  1.000  100.440428  325.662377  130.130132  38.642477  7717.201840  8156.173084  8246.705423  8589.588120
  10141.819  10141.790  1.000  101.436914  324.905661  129.946191  38.666229  7770.646942  8212.268200  8366.870058  8607.642396
  10146.127  10146.090  1.000  100.319966  324.585888  129.953255  38.737599  7753.183002  7972.876792  8238.715977  8597.669363
  10150.442  10150.410  1.000  100.697047  324.200810  129.919955  38.801795  7647.539378  8118.141498  8425.978042  8454.405235
  10154.780  10154.750  1.000  100.382246  323.498803  129.771059  38.838386  7650.375355  8065.002053  8205.612983  8552.545878
  10159.148  10159.110  1.000  101.480217  322.932936  129.664550  38.888251  7758.745251  8208.287345  8259.715349  8544.556401
  10163.515  10163.490  1.000  101.176741  322.675796  129.694179  38.978246  7647.639673  8133.198124  8375.939395  8490.508328
  10167.922  10167.880  1.000  101.178298  322.046953  129.567174  39.022592  7656.685751  8081.063272  8290.827395  8555.586200
  10172.333  10172.300  1.000  101.425963  321.532774  129.480992  39.082489  7694.390079  8008.933041  8382.929970  8525.518204
  10176.726  10176.730  1.000  100.756164  320.860073  129.345066  39.118120  7657.636081  8045.015120  8342.863269  8283.115727
  10181.221  10181.180  1.000  101.793430  320.635974  129.373144  39.206672  7685.113205  8265.407639  8246.711205  8441.403507
  10185.643  10185.650  1.000  99.973775  320.233177  129.339292  39.271800  7536.206505  8099.102765  8121.516610  8258.093758
  10190.164  10190.140  1.000  101.522738  319.679181  129.265247  39.321919  7633.395983  8115.131182  8221.692785  8484.485914
  10194.635  10194.650  1.000  101.253174  319.064683  129.148766  39.364028  7633.395983  7972.844645  8311.771070  8388.300209
  10199.219  10199.180  1.000  100.823830  318.479165  129.042636  39.408555  7579.553560  7911.758449  8348.882150  8270.095213
  10203.720  10203.730  1.000  100.792430  317.966504  128.954052  39.457789  7455.662612  8163.235560  8221.698447  8208.020006
  10208.294  10208.300  1.000  100.528397  317.195725  128.780500  39.477627  7387.314116  8007.989156  8251.753841  8240.120676
  10212.917  10212.880  1.000  100.253792  316.962986  128.814309  39.555249  7532.391347  7872.719887  8196.662442  8174.967576
  10217.467  10217.490  1.000  101.461667  316.549905  128.768060  39.608640  7444.625727  7953.880018  8267.756044  8451.419304
  10222.126  10222.110  1.000  101.372861  315.780008  128.593251  39.632252  7444.625727  8024.008816  8268.765561  8274.122793
  10226.739  10226.760  1.000  101.590214  315.110825  128.451593  39.655642  7470.364738  7955.847252  8120.523098  8465.440933
  10231.406  10231.420  1.000  101.246987  314.553610  128.349673  39.694211  7400.957698  7917.809451  8150.582597  8378.255482
  10236.100  10236.100  1.000  100.873090  313.903171  128.229046  39.721143  7521.253175  7757.500378  8120.507543  8265.121845
  10240.794  10240.800  1.000  100.321303  312.963870  127.980830  39.715562  7372.124215  7765.460455  8120.507543  8138.851178
  10245.519  10245.520  1.000  100.619393  312.947654  128.102724  39.822720  7429.499352  7828.677482  7965.295661  8265.130434
  10250.240  10250.260  1.000  100.843102  312.671612  128.125028  39.896312  7537.715655  7907.840698  7943.275471  8141.943383
  10255.002  10255.010  1.000  101.234626  312.037180  127.989137  39.925503  7405.718267  7915.793468  8019.364188  8248.091199
  10259.778  10259.790  1.000  102.250185  311.279136  127.815215  39.943491  7405.718267  7915.793468  8258.746169  8248.091199
  10264.567  10264.590  1.000  101.486695  310.948838  127.807385  40.012128  7575.316714  7789.540461  8000.314617  8191.998073
  10269.393  10269.400  1.000  101.146329  310.246028  127.653476  40.045637  7370.273911  7930.826206  7985.317584  8093.829259
  10274.223  10274.230  1.000  100.987272  309.361720  127.425416  40.056649  7321.757272  7906.811223  7924.221361  8088.806333
  10279.085  10279.090  1.000  101.852214  309.031956  127.428635  40.134878  7380.548411  7823.632484  8131.524919  8139.883129
  10283.934  10283.960  1.000  100.781612  308.985405  127.548621  40.243260  7345.513215  7728.458918  8065.407755  8000.667290
  10288.834  10288.850  1.000  100.385656  309.148661  127.734745  40.388368  7290.568197  7703.425819  7897.171350  8142.925809
  10293.751  10293.760  1.000  102.511582  308.639003  127.673699  40.445741  7423.680349  7944.894628  8081.473889  8189.023653
  10298.688  10298.690  1.000  102.327647  307.813481  127.468912  40.460990  7423.680349  7944.894628  7922.218172  8207.036090
